key height(A)
0.000 58.874
10.000 58.179
20.000 58.226
30.000 58.904
40.000 58.857
50.000 59.397
60.000 58.464
70.000 59.162
80.000 59.665
90.000 60.061
100.000 59.342
110.000 59.348
120.000 60.055
130.000 59.952
140.000 59.703
150.000 59.864
160.000 60.151
170.000 60.178
180.000 61.119
190.000 61.468
200.000 61.628
210.000 61.372
220.000 60.414
230.000 60.670
240.000 61.509
250.000 61.644
260.000 61.897
270.000 62.176
280.000 61.915
290.000 62.892
300.000 63.115
310.000 62.894
320.000 64.436
330.000 65.366
340.000 64.409
350.000 64.939
360.000 65.040
370.000 64.804
380.000 64.523
390.000 65.082
400.000 64.948
410.000 65.902
420.000 66.420
430.000 67.573
440.000 67.506
450.000 67.846
460.000 69.089
470.000 68.837
480.000 68.667
490.000 68.358
500.000 69.660
510.000 68.402
520.000 68.688
530.000 68.612
540.000 68.810
550.000 68.928
560.000 68.751
570.000 68.257
580.000 68.522
590.000 68.439
600.000 67.621
610.000 67.308
620.000 66.996
630.000 67.243
640.000 67.511
650.000 67.580
660.000 67.268
670.000 68.443
680.000 67.824
690.000 67.077
700.000 68.446
710.000 68.380
720.000 67.322
730.000 67.945
740.000 67.391
750.000 67.485
760.000 67.054
770.000 66.863
780.000 67.502
790.000 68.427
800.000 67.783
810.000 68.691
820.000 69.466
830.000 71.338
840.000 68.321
850.000 71.058
860.000 70.427
870.000 70.687
880.000 69.867
890.000 69.256
900.000 69.285
910.000 69.674
920.000 68.168
930.000 69.070
940.000 67.998
950.000 67.452
960.000 67.035
970.000 66.613
980.000 66.107
990.000 67.260
1000.000 65.085
1010.000 65.858
1020.000 65.002
1030.000 65.287
1040.000 65.931
1050.000 66.150
1060.000 65.792
1070.000 65.169
1080.000 63.711
1090.000 63.696
1100.000 64.000
1110.000 64.673
1120.000 64.578
1130.000 64.266
1140.000 64.578
1150.000 64.365
1160.000 65.948
1170.000 66.624
1180.000 66.053
1190.000 65.248
1200.000 64.396
1210.000 67.984
1220.000 66.328
1230.000 66.328
1240.000 66.893
1250.000 64.469
1260.000 63.556
1270.000 66.496
1280.000 65.827
1290.000 66.764
1300.000 67.098
1310.000 66.168
1320.000 65.019
1330.000 63.980
1340.000 63.465
1350.000 62.619
1360.000 62.707
1370.000 63.737
1380.000 62.330
1390.000 61.685
1400.000 59.723
1410.000 60.292
1420.000 57.708
1430.000 58.967
1440.000 59.164
1450.000 57.188
1460.000 55.567
1470.000 56.297
1480.000 55.881
1490.000 53.494
1500.000 55.156
1510.000 55.863
1520.000 55.982
1530.000 55.988
1540.000 56.837
1550.000 55.049
1560.000 56.413
1570.000 55.083
1580.000 54.488
1590.000 54.762
1600.000 55.163
1610.000 56.921
1620.000 53.506
1630.000 53.572
1640.000 51.781
1650.000 53.096
1660.000 51.287
1670.000 51.378
1680.000 50.596
1690.000 52.132
1700.000 50.899
1710.000 48.041
1720.000 48.898
1730.000 48.115
1740.000 47.921
1750.000 47.000
1760.000 46.973
1770.000 47.189
1780.000 47.327
1790.000 48.332
1800.000 46.944
1810.000 46.865
1820.000 46.982
1830.000 47.476
1840.000 47.032
1850.000 44.579
1860.000 43.960
1870.000 43.129
1880.000 43.901
1890.000 44.130
1900.000 43.115
1910.000 43.504
1920.000 45.417
1930.000 44.348
1940.000 44.350
1950.000 42.794
1960.000 42.994
1970.000 42.158
1980.000 42.235
1990.000 41.400
2000.000 42.536
2010.000 42.051
2020.000 42.860
2030.000 43.484
2040.000 43.006
2050.000 44.170
2060.000 42.270
2070.000 41.832
2080.000 42.715
2090.000 44.283
2100.000 45.207
2110.000 43.311
2120.000 43.304
2130.000 41.223
2140.000 41.617
2150.000 41.325
2160.000 41.066
2170.000 43.002
2180.000 41.806
2190.000 40.177
2200.000 39.512
2210.000 38.876
2220.000 38.388
2230.000 38.165
2240.000 36.741
2250.000 36.657
2260.000 36.229
2270.000 36.662
2280.000 35.865
2290.000 37.064
2300.000 38.065
2310.000 37.823
2320.000 38.381
2330.000 38.303
2340.000 37.850
2350.000 37.027
2360.000 36.837
2370.000 36.832
2380.000 37.030
2390.000 36.942
2400.000 35.090
2410.000 37.631
2420.000 35.479
2430.000 35.731
2440.000 36.924
2450.000 38.057
2460.000 36.194
2470.000 34.768
2480.000 35.391
2490.000 35.402
2500.000 37.931
2510.000 36.714
2520.000 36.099
2530.000 36.166
2540.000 35.119
2550.000 36.189
2560.000 35.818
2570.000 35.740
2580.000 35.016
2590.000 35.552
2600.000 35.310
2610.000 35.201
2620.000 36.645
2630.000 34.466
2640.000 35.201
2650.000 34.894
2660.000 35.259
2670.000 32.784
2680.000 32.062
2690.000 32.436
2700.000 32.113
2710.000 32.059
2720.000 31.846
2730.000 30.772
2740.000 31.317
2750.000 30.754
2760.000 32.223
2770.000 31.537
2780.000 30.950
2790.000 29.301
2800.000 31.746
2810.000 32.049
2820.000 33.195
2830.000 30.963
2840.000 32.107
2850.000 29.957
2860.000 29.500
2870.000 28.363
2880.000 28.652
2890.000 29.106
2900.000 28.452
2910.000 30.924
2920.000 30.889
2930.000 29.879
2940.000 29.417
2950.000 30.548
2960.000 29.339
2970.000 30.048
2980.000 28.633
2990.000 28.501
3000.000 30.033
3010.000 29.563
3020.000 30.411
3030.000 29.878
3040.000 30.208
3050.000 29.840
3060.000 29.387
3070.000 32.051
3080.000 30.205
3090.000 30.712
3100.000 31.883
3110.000 30.961
3120.000 30.890
3130.000 32.010
3140.000 30.501
3150.000 28.862
3160.000 29.714
3170.000 28.427
3180.000 27.871
3190.000 27.623
3200.000 28.166
3210.000 29.713
3220.000 29.935
3230.000 29.197
3240.000 30.077
3250.000 31.046
3260.000 32.001
3270.000 32.611
3280.000 32.038
3290.000 31.847
3300.000 32.900
3310.000 31.241
3320.000 31.139
3330.000 31.539
3340.000 30.501
3350.000 31.171
3360.000 30.593
3370.000 31.072
3380.000 29.043
3390.000 31.582
3400.000 29.745
3410.000 31.039
3420.000 28.962
3430.000 28.147
3440.000 28.481
3450.000 28.252
3460.000 27.610
3470.000 28.329
3480.000 30.797
3490.000 30.877
3500.000 31.527
3510.000 31.953
3520.000 33.569
3530.000 32.064
3540.000 31.752
3550.000 30.844
3560.000 31.310
3570.000 31.056
3580.000 29.950
3590.000 33.126
3600.000 34.124
3610.000 33.429
3620.000 35.420
3630.000 36.449
3640.000 34.935
3650.000 34.361
3660.000 33.290
3670.000 32.693
3680.000 33.383
3690.000 33.286
3700.000 32.973
3710.000 34.738
3720.000 36.674
3730.000 37.264
3740.000 35.734
3750.000 35.923
3760.000 37.879
3770.000 37.194
3780.000 37.573
3790.000 40.181
3800.000 39.050
3810.000 38.314
3820.000 38.404
3830.000 39.015
3840.000 39.981
3850.000 42.324
3860.000 45.251
3870.000 42.769
3880.000 39.574
3890.000 36.692
3900.000 37.108
3910.000 35.074
3920.000 33.801
3930.000 35.775
3940.000 32.505
3950.000 31.513
3960.000 31.524
3970.000 32.072
3980.000 31.279
3990.000 29.813
4000.000 31.319
4010.000 32.691
4020.000 32.298
4030.000 31.694
4040.000 36.334
4050.000 37.024
4060.000 33.195
4070.000 32.871
4080.000 30.785
4090.000 29.075
4100.000 28.642
4110.000 27.618
4120.000 27.918
4130.000 28.434
4140.000 28.443
4150.000 27.400
4160.000 26.440
4170.000 25.581
4180.000 25.972
4190.000 27.416
4200.000 27.468
4210.000 28.609
4220.000 30.080
4230.000 31.091
4240.000 31.740
4250.000 32.012
4260.000 29.536
4270.000 29.222
4280.000 28.774
4290.000 30.593
4300.000 31.515
4310.000 31.084
4320.000 28.887
4330.000 28.105
4340.000 31.070
4350.000 31.042
4360.000 27.975
4370.000 26.675
4380.000 28.820
4390.000 30.509
4400.000 28.497
4410.000 27.047
4420.000 31.999
4430.000 29.197
4440.000 28.131
4450.000 28.900
4460.000 30.053
4470.000 28.196
4480.000 28.591
4490.000 27.109
4500.000 27.466
4510.000 26.994
4520.000 28.349
4530.000 27.234
4540.000 26.299
4550.000 25.474
4560.000 27.114
4570.000 24.846
4580.000 25.511
4590.000 22.931
4600.000 22.074
4610.000 23.024
4620.000 22.641
4630.000 23.348
4640.000 22.670
4650.000 24.680
4660.000 24.801
4670.000 25.050
4680.000 25.250
4690.000 26.256
4700.000 27.067
4710.000 28.446
4720.000 26.772
4730.000 26.489
4740.000 27.145
4750.000 24.767
4760.000 23.908
4770.000 24.971
4780.000 27.472
4790.000 24.604
4800.000 25.618
4810.000 25.511
4820.000 25.923
4830.000 27.679
4840.000 28.468
4850.000 29.055
4860.000 28.368
4870.000 27.569
4880.000 29.317
4890.000 34.122
4900.000 33.545
4910.000 32.503
4920.000 33.067
4930.000 31.792
4940.000 33.935
4950.000 34.703
4960.000 33.060
4970.000 30.129
4980.000 29.448
4990.000 28.922
5000.000 30.555
5010.000 30.855
5020.000 29.145
5030.000 30.375
5040.000 30.015
5050.000 28.735
5060.000 29.221
5070.000 31.809
5080.000 30.391
5090.000 29.935
5100.000 30.160
5110.000 31.999
5120.000 29.833
5130.000 29.520
5140.000 30.527
5150.000 30.137
5160.000 29.831
5170.000 33.024
5180.000 30.333
5190.000 29.943
5200.000 31.304
5210.000 29.227
5220.000 29.496
5230.000 31.558
5240.000 32.709
5250.000 30.536
5260.000 27.067
5270.000 25.217
5280.000 26.448
5290.000 26.544
5300.000 27.975
5310.000 27.554
5320.000 27.737
5330.000 26.847
5340.000 27.810
5350.000 26.324
5360.000 24.451
5370.000 22.210
5380.000 20.888
5390.000 21.741
5400.000 22.078
5410.000 22.376
5420.000 21.233
5430.000 20.657
5440.000 21.572
5450.000 20.989
5460.000 23.369
5470.000 23.045
5480.000 23.785
5490.000 23.285
5500.000 22.656
5510.000 23.819
5520.000 26.491
5530.000 25.392
5540.000 22.461
5550.000 22.995
5560.000 22.594
5570.000 23.078
5580.000 22.380
5590.000 22.244
5600.000 24.291
5610.000 23.042
5620.000 22.400
5630.000 23.387
5640.000 23.287
5650.000 24.144
5660.000 23.934
5670.000 23.210
5680.000 23.637
5690.000 24.285
5700.000 26.868
5710.000 24.862
5720.000 24.930
5730.000 27.759
5740.000 26.303
5750.000 24.722
5760.000 24.116
5770.000 24.917
5780.000 25.693
5790.000 24.094
5800.000 24.459
5810.000 25.069
5820.000 25.496
5830.000 25.459
5840.000 24.564
5850.000 24.467
5860.000 23.760
5870.000 24.825
5880.000 26.677
5890.000 27.069
5900.000 27.668
5910.000 29.137
5920.000 28.252
5930.000 28.316
5940.000 28.493
5950.000 29.518
5960.000 29.363
5970.000 30.082
5980.000 31.727
5990.000 31.272
6000.000 32.168
6010.000 34.874
6020.000 31.873
6030.000 30.900
6040.000 28.694
6050.000 27.355
6060.000 27.310
6070.000 27.178
6080.000 29.188
6090.000 29.377
6100.000 28.251
6110.000 27.310
6120.000 28.765
6130.000 29.232
6140.000 27.980
6150.000 29.081
6160.000 28.081
6170.000 27.860
6180.000 31.826
6190.000 31.183
6200.000 30.583
6210.000 30.498
6220.000 30.056
6230.000 31.008
6240.000 31.342
6250.000 30.552
6260.000 31.714
6270.000 30.721
6280.000 30.154
6290.000 30.302
6300.000 30.890
6310.000 31.799
6320.000 31.640
6330.000 31.961
6340.000 31.924
6350.000 32.384
6360.000 33.641
6370.000 33.675
6380.000 33.659
6390.000 32.975
6400.000 36.097
6410.000 35.189
6420.000 35.308
6430.000 35.440
6440.000 36.016
6450.000 36.802
6460.000 37.768
6470.000 37.016
6480.000 37.407
6490.000 39.777
6500.000 38.593
6510.000 39.341
6520.000 39.755
6530.000 40.145
6540.000 38.807
6550.000 39.386
6560.000 38.790
6570.000 38.648
6580.000 39.087
6590.000 38.718
6600.000 39.801
6610.000 40.755
6620.000 40.748
6630.000 40.199
6640.000 40.141
6650.000 40.744
6660.000 41.194
6670.000 41.823
6680.000 41.976
6690.000 42.273
6700.000 46.881
6710.000 44.392
6720.000 44.349
6730.000 44.773
6740.000 45.250
6750.000 45.202
6760.000 44.245
6770.000 43.735
6780.000 43.429
6790.000 43.274
6800.000 43.487
6810.000 43.726
6820.000 44.865
6830.000 44.058
6840.000 43.854
6850.000 44.538
6860.000 44.550
6870.000 44.284
6880.000 45.560
6890.000 45.258
6900.000 45.074
6910.000 45.111
6920.000 46.701
6930.000 45.968
6940.000 45.598
6950.000 46.306
6960.000 46.320
6970.000 46.663
6980.000 46.795
6990.000 47.179
7000.000 47.313
7010.000 47.391
7020.000 48.012
7030.000 48.613
7040.000 49.696
7050.000 49.884
7060.000 50.869
7070.000 50.726
7080.000 51.650
7090.000 53.010
7100.000 53.089
7110.000 52.512
7120.000 53.063
7130.000 52.931
7140.000 53.088
7150.000 53.054
7160.000 52.565
7170.000 52.966
7180.000 53.373
7190.000 56.757
7200.000 59.843
7210.000 61.142
7220.000 61.767
7230.000 63.955
7240.000 64.683
7250.000 63.413
7260.000 62.909
7270.000 63.983
7280.000 64.443
7290.000 64.744
7300.000 64.105
7310.000 62.463
7320.000 62.417
7330.000 62.829
7340.000 64.003
7350.000 63.799
7360.000 63.639
7370.000 63.862
7380.000 63.386
7390.000 63.564
7400.000 63.701
7410.000 63.658
7420.000 63.056
7430.000 63.910
7440.000 64.362
7450.000 64.670
7460.000 65.039
7470.000 65.574
7480.000 65.580
7490.000 65.255
7500.000 65.915
7510.000 67.926
7520.000 69.301
7530.000 68.233
7540.000 68.362
7550.000 69.116
7560.000 70.274
7570.000 71.421
7580.000 70.577
7590.000 70.955
7600.000 71.518
7610.000 70.096
7620.000 69.205
7630.000 69.089
7640.000 69.310
7650.000 69.286
7660.000 70.335
7670.000 70.057
7680.000 70.551
7690.000 70.094
7700.000 70.168
7710.000 70.677
7720.000 71.169
7730.000 71.363
7740.000 71.719
7750.000 72.644
7760.000 73.053
7770.000 73.176
7780.000 73.840
7790.000 73.989
7800.000 75.118
7810.000 74.911
7820.000 74.876
7830.000 75.173
7840.000 75.235
7850.000 76.155
7860.000 77.102
7870.000 76.554
7880.000 77.902
7890.000 79.882
7900.000 79.308
7910.000 78.469
7920.000 79.118
7930.000 78.211
7940.000 78.977
7950.000 80.205
7960.000 80.093
7970.000 80.532
7980.000 81.585
7990.000 82.404
8000.000 81.748
8010.000 82.074
8020.000 82.567
8030.000 82.415
8040.000 82.598
8050.000 82.688
8060.000 82.371
8070.000 82.213
8080.000 81.742
8090.000 82.722
8100.000 83.875
8110.000 84.355
8120.000 84.366
8130.000 83.672
8140.000 83.388
8150.000 83.574
8160.000 83.692
8170.000 84.687
8180.000 85.525
8190.000 86.669
8200.000 86.113
8210.000 85.353
8220.000 85.829
8230.000 86.250
8240.000 86.543
8250.000 87.331
8260.000 88.349
8270.000 89.088
8280.000 89.091
8290.000 90.283
8300.000 90.560
8310.000 90.036
8320.000 90.402
8330.000 90.661
8340.000 91.368
8350.000 91.075
8360.000 90.667
8370.000 90.570
8380.000 90.085
8390.000 90.801
8400.000 91.416
8410.000 92.639
8420.000 92.922
8430.000 92.858
8440.000 93.028
8450.000 92.393
8460.000 92.633
8470.000 92.031
8480.000 92.029
8490.000 92.337
8500.000 92.399
8510.000 93.146
8520.000 93.475
8530.000 93.345
8540.000 94.568
8550.000 93.167
8560.000 93.712
8570.000 92.926
8580.000 93.427
8590.000 92.855
8600.000 93.379
8610.000 94.243
8620.000 94.231
8630.000 93.826
8640.000 94.335
8650.000 94.300
8660.000 94.548
8670.000 94.619
8680.000 94.692
8690.000 94.514
8700.000 95.177
8710.000 96.489
8720.000 96.848
8730.000 97.556
8740.000 98.309
8750.000 98.591
8760.000 99.398
8770.000 100.238
8780.000 100.702
8790.000 101.049
8800.000 100.860
8810.000 100.721
8820.000 100.917
8830.000 100.247
8840.000 99.345
8850.000 98.855
8860.000 99.271
8870.000 99.685
8880.000 99.967
8890.000 100.353
8900.000 100.037
8910.000 101.155
8920.000 101.526
8930.000 102.441
8940.000 102.743
8950.000 103.630
8960.000 104.274
8970.000 104.097
8980.000 104.993
8990.000 104.897
9000.000 105.532
9010.000 105.079
9020.000 104.969
9030.000 104.930
9040.000 104.811
9050.000 105.104
9060.000 105.414
9070.000 105.315
9080.000 105.902
9090.000 106.075
9100.000 106.779
9110.000 106.684
9120.000 107.557
9130.000 108.092
9140.000 107.938
9150.000 107.973
9160.000 108.840
9170.000 110.599
9180.000 109.508
9190.000 109.898
9200.000 109.518
9210.000 109.789
9220.000 109.410
9230.000 110.625
9240.000 110.615
9250.000 112.413
9260.000 111.912
9270.000 112.558
9280.000 113.605
9290.000 113.536
9300.000 113.007
9310.000 113.003
9320.000 113.486
9330.000 113.839
9340.000 114.566
9350.000 115.374
9360.000 114.588
9370.000 114.847
9380.000 115.164
9390.000 115.249
9400.000 115.468
9410.000 116.440
9420.000 116.901
9430.000 118.199
9440.000 117.008
9450.000 117.623
9460.000 118.143
9470.000 118.450
9480.000 118.707
9490.000 119.287
9500.000 119.234
9510.000 119.851
9520.000 118.938
9530.000 120.600
9540.000 119.905
9550.000 120.207
9560.000 120.701
9570.000 120.010
9580.000 120.209
9590.000 119.767
9600.000 119.527
9610.000 119.549
9620.000 120.251
9630.000 120.815
9640.000 121.591
9650.000 121.596
9660.000 122.385
9670.000 122.930
9680.000 123.010
9690.000 123.939
9700.000 123.729
9710.000 123.679
9720.000 122.647
9730.000 123.247
9740.000 122.921
9750.000 123.302
9760.000 123.505
9770.000 124.068
9780.000 124.626
9790.000 123.779
9800.000 124.059
9810.000 123.909
9820.000 124.194
9830.000 124.384
9840.000 123.484
9850.000 123.997
9860.000 125.655
9870.000 126.333
9880.000 125.697
9890.000 125.636
9900.000 125.144
9910.000 125.375
9920.000 126.456
9930.000 126.763
9940.000 126.966
9950.000 126.934
9960.000 127.688
9970.000 128.341
9980.000 129.798
9990.000 130.532
10000.000 130.833
10010.000 131.006
10020.000 131.401
10030.000 132.309
10040.000 132.749
10050.000 133.195
10060.000 132.492
10070.000 132.498
10080.000 131.812
10090.000 133.209
10100.000 133.347
10110.000 134.122
10120.000 134.142
10130.000 134.103
10140.000 134.344
10150.000 134.402
10160.000 134.129
10170.000 134.855
10180.000 135.327
10190.000 135.309
10200.000 134.843
10210.000 134.730
10220.000 134.697
10230.000 134.596
10240.000 135.446
10250.000 135.058
10260.000 136.376
10270.000 136.434
10280.000 136.515
10290.000 137.427
10300.000 138.211
10310.000 138.850
10320.000 139.768
10330.000 139.223
10340.000 139.086
10350.000 138.581
10360.000 138.956
10370.000 139.248
10380.000 139.492
10390.000 139.585
10400.000 139.808
10410.000 140.685
10420.000 142.029
10430.000 141.702
10440.000 142.080
10450.000 142.119
10460.000 142.237
10470.000 142.419
10480.000 141.658
10490.000 141.719
10500.000 142.841
10510.000 141.552
10520.000 141.799
10530.000 142.347
10540.000 142.822
10550.000 144.159
10560.000 144.307
10570.000 145.702
10580.000 144.821
10590.000 144.628
10600.000 145.528
10610.000 146.335
10620.000 146.207
10630.000 145.588
10640.000 145.414
10650.000 145.368
10660.000 145.770
10670.000 146.992
10680.000 147.460
10690.000 147.763
10700.000 148.226
10710.000 148.304
10720.000 148.354
10730.000 149.059
10740.000 149.491
10750.000 150.459
10760.000 150.259
10770.000 150.097
10780.000 149.821
10790.000 151.104
10800.000 151.293
10810.000 151.239
10820.000 151.796
10830.000 151.687
10840.000 153.416
10850.000 152.754
10860.000 154.068
10870.000 154.336
10880.000 153.973
10890.000 154.017
10900.000 154.582
10910.000 154.311
10920.000 153.980
10930.000 153.528
10940.000 155.069
10950.000 154.651
10960.000 154.333
10970.000 154.136
10980.000 154.866
10990.000 154.941
11000.000 155.081
11010.000 155.433
11020.000 155.341
11030.000 155.411
11040.000 157.119
11050.000 157.137
11060.000 157.195
11070.000 157.573
11080.000 158.953
11090.000 157.815
11100.000 157.647
11110.000 158.134
11120.000 158.289
11130.000 160.283
11140.000 159.914
11150.000 159.479
11160.000 160.250
11170.000 159.424
11180.000 162.104
11190.000 161.141
11200.000 162.584
11210.000 162.785
11220.000 161.946
11230.000 164.402
11240.000 164.278
11250.000 163.287
11260.000 163.284
11270.000 163.696
11280.000 163.369
11290.000 163.619
11300.000 163.399
11310.000 163.547
11320.000 163.793
11330.000 163.862
11340.000 164.010
11350.000 164.538
11360.000 164.241
11370.000 164.528
11380.000 165.740
11390.000 165.611
11400.000 166.553
11410.000 166.520
11420.000 165.939
11430.000 166.131
11440.000 165.827
11450.000 166.065
11460.000 165.872
11470.000 166.497
11480.000 168.446
11490.000 167.237
11500.000 167.199
11510.000 166.554
11520.000 167.200
11530.000 167.970
11540.000 167.362
11550.000 167.970
11560.000 168.338
11570.000 168.650
11580.000 168.626
11590.000 168.641
11600.000 169.225
11610.000 169.703
11620.000 170.115
11630.000 170.218
11640.000 170.506
11650.000 171.509
11660.000 170.931
11670.000 170.683
11680.000 170.990
11690.000 171.272
11700.000 170.183
11710.000 171.954
11720.000 173.024
11730.000 175.071
11740.000 174.944
11750.000 175.197
11760.000 176.088
11770.000 175.138
11780.000 174.513
11790.000 175.137
11800.000 175.564
11810.000 175.870
11820.000 177.732
11830.000 177.325
11840.000 177.526
11850.000 177.741
11860.000 178.340
11870.000 178.672
11880.000 178.581
11890.000 179.662
11900.000 180.143
11910.000 181.226
11920.000 180.733
11930.000 180.624
11940.000 181.436
11950.000 181.243
11960.000 181.759
11970.000 180.799
11980.000 181.517
11990.000 181.473
12000.000 180.795
12010.000 181.027
12020.000 181.006
12030.000 181.006
12040.000 181.604
12050.000 182.809
12060.000 183.578
12070.000 183.273
12080.000 184.155
12090.000 183.485
12100.000 183.094
12110.000 182.736
12120.000 182.898
12130.000 184.244
12140.000 183.354
12150.000 182.721
12160.000 182.727
12170.000 182.873
12180.000 182.544
12190.000 182.669
12200.000 182.435
12210.000 183.136
12220.000 183.509
12230.000 183.526
12240.000 184.898
12250.000 184.254
12260.000 183.718
12270.000 184.364
12280.000 184.368
12290.000 185.298
12300.000 185.453
12310.000 187.191
12320.000 186.669
12330.000 186.707
12340.000 187.148
12350.000 187.470
12360.000 187.027
12370.000 187.398
12380.000 187.526
12390.000 187.846
12400.000 189.201
12410.000 189.160
12420.000 188.825
12430.000 189.476
12440.000 189.170
12450.000 190.509
12460.000 190.446
12470.000 190.237
12480.000 192.133
12490.000 191.662
12500.000 191.911
12510.000 192.116
12520.000 192.632
12530.000 192.924
12540.000 192.871
12550.000 193.394
12560.000 193.281
12570.000 194.186
12580.000 193.775
12590.000 193.780
12600.000 194.336
12610.000 194.571
12620.000 194.620
12630.000 195.326
12640.000 195.192
12650.000 195.677
12660.000 195.241
12670.000 196.363
12680.000 195.925
12690.000 197.598
12700.000 197.142
12710.000 197.703
12720.000 199.081
12730.000 198.182
12740.000 197.333
12750.000 198.693
12760.000 197.459
12770.000 197.949
12780.000 198.829
12790.000 197.615
12800.000 197.973
12810.000 197.773
12820.000 197.050
12830.000 197.921
12840.000 198.043
12850.000 198.417
12860.000 198.768
12870.000 198.583
12880.000 197.816
12890.000 198.235
12900.000 198.188
12910.000 198.902
12920.000 199.299
12930.000 199.786
12940.000 200.670
12950.000 200.564
12960.000 201.057
12970.000 201.193
12980.000 201.575
12990.000 200.377
13000.000 200.758
13010.000 201.675
13020.000 201.180
13030.000 200.852
13040.000 201.194
13050.000 203.515
13060.000 203.657
13070.000 203.288
13080.000 203.728
13090.000 204.768
13100.000 205.118
13110.000 204.751
13120.000 205.356
13130.000 206.239
13140.000 207.415
13150.000 207.346
13160.000 207.967
13170.000 207.783
13180.000 209.121
13190.000 209.207
13200.000 209.472
13210.000 208.752
13220.000 209.371
13230.000 208.988
13240.000 209.391
13250.000 209.826
13260.000 209.283
13270.000 210.815
13280.000 211.107
13290.000 210.426
13300.000 212.369
13310.000 211.017
13320.000 211.900
13330.000 210.790
13340.000 211.189
13350.000 211.196
13360.000 211.299
13370.000 212.205
13380.000 212.068
13390.000 212.487
13400.000 212.939
13410.000 213.192
13420.000 213.411
13430.000 214.320
13440.000 213.788
13450.000 214.462
13460.000 214.560
13470.000 215.006
13480.000 215.670
13490.000 216.330
13500.000 216.367
13510.000 216.406
13520.000 216.091
13530.000 216.492
13540.000 217.183
13550.000 218.705
13560.000 217.379
13570.000 217.474
13580.000 217.621
13590.000 217.802
13600.000 218.706
13610.000 219.160
13620.000 218.867
13630.000 218.789
13640.000 218.926
13650.000 220.519
13660.000 220.735
13670.000 220.697
13680.000 221.497
13690.000 222.852
13700.000 223.771
13710.000 222.140
13720.000 223.468
13730.000 222.906
13740.000 224.631
13750.000 223.582
13760.000 223.317
13770.000 223.038
13780.000 222.402
13790.000 223.284
13800.000 223.190
13810.000 224.820
13820.000 224.086
13830.000 224.566
13840.000 226.191
13850.000 226.527
13860.000 226.106
13870.000 225.284
13880.000 225.336
13890.000 225.558
13900.000 225.752
13910.000 226.930
13920.000 227.438
13930.000 227.490
13940.000 228.426
13950.000 228.221
13960.000 227.862
13970.000 227.994
13980.000 227.421
13990.000 227.603
14000.000 227.683
14010.000 228.845
14020.000 228.603
14030.000 228.028
14040.000 229.045
14050.000 228.198
14060.000 228.667
14070.000 228.911
14080.000 229.175
14090.000 230.612
14100.000 229.249
14110.000 229.789
14120.000 229.214
14130.000 229.366
14140.000 229.256
14150.000 229.259
14160.000 229.087
14170.000 229.826
14180.000 230.585
14190.000 230.242
14200.000 230.726
14210.000 231.012
14220.000 230.545
14230.000 230.997
14240.000 232.043
14250.000 232.611
14260.000 232.907
14270.000 232.856
14280.000 233.212
14290.000 234.062
14300.000 234.764
14310.000 234.752
14320.000 233.755
14330.000 235.284
14340.000 234.751
14350.000 236.623
14360.000 236.425
14370.000 236.736
14380.000 236.399
14390.000 236.780
14400.000 237.488
14410.000 238.024
14420.000 239.031
14430.000 239.054
14440.000 238.851
14450.000 240.166
14460.000 238.558
14470.000 239.140
14480.000 239.086
14490.000 239.659
14500.000 240.183
14510.000 240.558
14520.000 241.278
14530.000 241.745
14540.000 242.969
14550.000 243.246
14560.000 243.034
14570.000 243.784
14580.000 243.628
14590.000 245.324
14600.000 244.953
14610.000 244.902
14620.000 244.745
14630.000 245.279
14640.000 246.272
14650.000 247.371
14660.000 246.612
14670.000 248.129
14680.000 246.685
14690.000 246.676
14700.000 248.076
14710.000 249.273
14720.000 250.130
14730.000 249.820
14740.000 250.168
14750.000 249.363
14760.000 249.675
14770.000 249.436
14780.000 248.887
14790.000 248.845
14800.000 250.049
14810.000 250.298
14820.000 250.366
14830.000 250.356
14840.000 250.781
14850.000 249.853
14860.000 250.126
14870.000 250.001
14880.000 251.459
14890.000 252.507
14900.000 252.836
14910.000 252.878
14920.000 253.384
14930.000 255.437
14940.000 253.899
14950.000 253.890
14960.000 254.287
14970.000 254.114
14980.000 254.248
14990.000 253.976
15000.000 254.518
