key height(A)
0.000 58.874
10.000 57.584
20.000 57.137
30.000 57.659
40.000 57.579
50.000 57.995
60.000 58.194
70.000 57.643
80.000 58.296
90.000 58.909
100.000 58.960
110.000 59.653
120.000 60.073
130.000 60.762
140.000 59.968
150.000 59.123
160.000 58.774
170.000 57.661
180.000 58.050
190.000 59.112
200.000 58.503
210.000 58.516
220.000 58.266
230.000 58.965
240.000 59.300
250.000 59.578
260.000 58.687
270.000 58.575
280.000 58.014
290.000 58.843
300.000 58.889
310.000 59.693
320.000 59.302
330.000 58.910
340.000 59.292
350.000 59.896
360.000 59.020
370.000 59.140
380.000 59.701
390.000 59.753
400.000 59.499
410.000 58.335
420.000 59.251
430.000 59.796
440.000 59.508
450.000 58.951
460.000 59.029
470.000 58.717
480.000 58.024
490.000 58.076
500.000 58.501
510.000 58.732
520.000 58.772
530.000 59.187
540.000 59.205
550.000 58.242
560.000 57.771
570.000 57.793
580.000 57.978
590.000 58.121
600.000 58.526
610.000 59.914
620.000 59.051
630.000 58.994
640.000 58.871
650.000 58.883
660.000 59.518
670.000 60.088
680.000 60.137
690.000 58.473
700.000 55.798
710.000 54.977
720.000 56.110
730.000 54.874
740.000 54.342
750.000 53.919
760.000 53.863
770.000 53.388
780.000 53.983
790.000 53.811
800.000 54.480
810.000 55.724
820.000 55.853
830.000 56.035
840.000 56.337
850.000 55.708
860.000 55.547
870.000 52.230
880.000 53.957
890.000 53.092
900.000 52.759
910.000 53.044
920.000 53.674
930.000 51.910
940.000 52.587
950.000 54.266
960.000 53.884
970.000 53.251
980.000 52.357
990.000 52.237
1000.000 51.239
1010.000 51.572
1020.000 51.514
1030.000 51.009
1040.000 50.434
1050.000 48.370
1060.000 49.416
1070.000 48.642
1080.000 47.974
1090.000 46.243
1100.000 47.705
1110.000 47.779
1120.000 47.689
1130.000 48.949
1140.000 47.961
1150.000 48.964
1160.000 49.774
1170.000 48.265
1180.000 49.796
1190.000 48.216
1200.000 47.405
1210.000 47.642
1220.000 48.009
1230.000 47.357
1240.000 47.555
1250.000 47.150
1260.000 46.670
1270.000 46.331
1280.000 45.904
1290.000 47.169
1300.000 46.448
1310.000 47.366
1320.000 47.711
1330.000 46.516
1340.000 46.695
1350.000 45.789
1360.000 47.521
1370.000 46.845
1380.000 45.757
1390.000 44.675
1400.000 43.520
1410.000 41.164
1420.000 40.729
1430.000 41.500
1440.000 41.744
1450.000 42.584
1460.000 43.168
1470.000 42.838
1480.000 42.833
1490.000 43.559
1500.000 39.159
1510.000 38.600
1520.000 38.020
1530.000 36.881
1540.000 37.746
1550.000 35.554
1560.000 35.622
1570.000 36.266
1580.000 35.907
1590.000 34.601
1600.000 34.899
1610.000 34.786
1620.000 31.939
1630.000 32.556
1640.000 32.251
1650.000 32.602
1660.000 32.816
1670.000 31.600
1680.000 33.449
1690.000 33.111
1700.000 33.025
1710.000 33.713
1720.000 32.705
1730.000 32.210
1740.000 32.103
1750.000 32.121
1760.000 30.956
1770.000 30.851
1780.000 31.503
1790.000 30.397
1800.000 30.833
1810.000 30.079
1820.000 29.965
1830.000 29.153
1840.000 28.987
1850.000 29.580
1860.000 30.402
1870.000 30.610
1880.000 30.818
1890.000 30.676
1900.000 32.091
1910.000 30.074
1920.000 29.049
1930.000 29.245
1940.000 27.976
1950.000 27.908
1960.000 26.778
1970.000 27.646
1980.000 25.858
1990.000 24.604
2000.000 25.121
2010.000 24.574
2020.000 24.283
2030.000 24.998
2040.000 24.596
2050.000 25.111
2060.000 23.981
2070.000 23.400
2080.000 23.847
2090.000 23.566
2100.000 23.944
2110.000 23.282
2120.000 23.508
2130.000 23.298
2140.000 22.903
2150.000 21.395
2160.000 21.766
2170.000 21.569
2180.000 22.294
2190.000 22.062
2200.000 21.345
2210.000 21.217
2220.000 20.483
2230.000 19.718
2240.000 19.487
2250.000 19.702
2260.000 18.845
2270.000 20.184
2280.000 19.882
2290.000 19.304
2300.000 18.879
2310.000 17.376
2320.000 18.736
2330.000 16.897
2340.000 16.333
2350.000 16.267
2360.000 15.510
2370.000 15.391
2380.000 15.131
2390.000 15.508
2400.000 16.071
2410.000 15.121
2420.000 15.421
2430.000 15.115
2440.000 15.717
2450.000 14.964
2460.000 13.790
2470.000 14.110
2480.000 14.169
2490.000 14.166
2500.000 12.383
2510.000 12.368
2520.000 12.922
2530.000 13.118
2540.000 13.242
2550.000 13.911
2560.000 14.347
2570.000 14.255
2580.000 13.113
2590.000 13.586
2600.000 13.987
2610.000 14.026
2620.000 13.036
2630.000 12.837
2640.000 11.815
2650.000 11.266
2660.000 11.604
2670.000 11.075
2680.000 10.907
2690.000 11.801
2700.000 12.770
2710.000 12.212
2720.000 11.791
2730.000 12.725
2740.000 12.387
2750.000 11.227
2760.000 11.544
2770.000 11.257
2780.000 9.733
2790.000 10.246
2800.000 9.854
2810.000 10.742
2820.000 10.390
2830.000 8.648
2840.000 9.615
2850.000 9.326
2860.000 9.293
2870.000 8.327
2880.000 7.874
2890.000 6.606
2900.000 6.803
2910.000 6.944
2920.000 6.912
2930.000 5.844
2940.000 6.231
2950.000 6.322
2960.000 5.966
2970.000 5.099
2980.000 5.661
2990.000 6.473
3000.000 6.187
3010.000 5.972
3020.000 6.081
3030.000 7.297
3040.000 5.960
3050.000 7.084
3060.000 7.263
3070.000 6.935
3080.000 6.423
3090.000 5.708
3100.000 3.845
3110.000 4.648
3120.000 4.311
3130.000 2.832
3140.000 2.234
3150.000 2.837
3160.000 2.811
3170.000 2.552
3180.000 2.388
3190.000 1.437
3200.000 1.697
3210.000 1.306
3220.000 1.937
3230.000 2.649
3240.000 0.730
3250.000 0.690
3260.000 -0.509
3270.000 -0.478
3280.000 -0.318
3290.000 0.672
3300.000 0.091
3310.000 -0.188
3320.000 -0.718
3330.000 -0.889
3340.000 -0.648
3350.000 -1.117
3360.000 -2.612
3370.000 -2.452
3380.000 -3.341
3390.000 -3.327
3400.000 -3.421
3410.000 -3.597
3420.000 -3.341
3430.000 -3.818
3440.000 -3.005
3450.000 -3.866
3460.000 -3.263
3470.000 -3.623
3480.000 -2.744
3490.000 -4.193
3500.000 -4.694
3510.000 -4.298
3520.000 -3.588
3530.000 -3.612
3540.000 -3.646
3550.000 -3.798
3560.000 -3.990
3570.000 -4.866
3580.000 -4.299
3590.000 -5.793
3600.000 -6.083
3610.000 -7.137
3620.000 -8.013
3630.000 -7.527
3640.000 -7.415
3650.000 -7.141
3660.000 -6.785
3670.000 -7.321
3680.000 -8.368
3690.000 -8.601
3700.000 -8.712
3710.000 -8.898
3720.000 -8.791
3730.000 -9.093
3740.000 -10.145
3750.000 -10.457
3760.000 -10.065
3770.000 -9.809
3780.000 -10.355
3790.000 -10.802
3800.000 -10.598
3810.000 -9.838
3820.000 -9.360
3830.000 -9.730
3840.000 -10.790
3850.000 -10.488
3860.000 -10.376
3870.000 -10.785
3880.000 -11.973
3890.000 -10.825
3900.000 -9.703
3910.000 -10.299
3920.000 -10.830
3930.000 -11.757
3940.000 -11.804
3950.000 -12.309
3960.000 -12.705
3970.000 -13.036
3980.000 -11.817
3990.000 -11.393
4000.000 -9.707
4010.000 -9.897
4020.000 -11.907
4030.000 -11.503
4040.000 -12.487
4050.000 -11.653
4060.000 -12.778
4070.000 -12.642
4080.000 -12.310
4090.000 -11.674
4100.000 -12.081
4110.000 -11.555
4120.000 -11.617
4130.000 -13.870
4140.000 -13.477
4150.000 -14.991
4160.000 -15.318
4170.000 -15.111
4180.000 -15.423
4190.000 -15.678
4200.000 -16.304
4210.000 -16.514
4220.000 -15.615
4230.000 -15.766
4240.000 -17.304
4250.000 -17.368
4260.000 -18.428
4270.000 -18.721
4280.000 -18.270
4290.000 -17.300
4300.000 -17.438
4310.000 -18.640
4320.000 -18.461
4330.000 -18.781
4340.000 -18.440
4350.000 -18.490
4360.000 -19.053
4370.000 -17.375
4380.000 -18.767
4390.000 -17.688
4400.000 -18.470
4410.000 -18.826
4420.000 -20.287
4430.000 -20.944
4440.000 -22.265
4450.000 -21.933
4460.000 -21.713
4470.000 -22.168
4480.000 -22.710
4490.000 -22.583
4500.000 -21.927
4510.000 -23.309
4520.000 -22.516
4530.000 -22.123
4540.000 -21.921
4550.000 -23.500
4560.000 -22.939
4570.000 -22.599
4580.000 -24.070
4590.000 -24.605
4600.000 -23.855
4610.000 -24.462
4620.000 -23.834
4630.000 -24.979
4640.000 -25.718
4650.000 -25.813
4660.000 -25.285
4670.000 -25.088
4680.000 -25.799
4690.000 -25.718
4700.000 -26.137
4710.000 -26.557
4720.000 -26.961
4730.000 -27.915
4740.000 -27.068
4750.000 -26.100
4760.000 -25.725
4770.000 -26.955
4780.000 -26.762
4790.000 -26.635
4800.000 -26.771
4810.000 -27.349
4820.000 -27.787
4830.000 -28.602
4840.000 -28.735
4850.000 -28.158
4860.000 -27.928
4870.000 -28.646
4880.000 -27.035
4890.000 -28.447
4900.000 -28.458
4910.000 -28.373
4920.000 -28.476
4930.000 -27.572
4940.000 -28.431
4950.000 -28.433
4960.000 -28.893
4970.000 -29.033
4980.000 -29.232
4990.000 -29.640
5000.000 -29.744
5010.000 -28.707
5020.000 -30.733
5030.000 -30.220
5040.000 -31.060
5050.000 -31.638
5060.000 -31.993
5070.000 -31.920
5080.000 -31.555
5090.000 -31.158
5100.000 -31.483
5110.000 -31.491
5120.000 -32.508
5130.000 -30.895
5140.000 -30.718
5150.000 -31.081
5160.000 -31.516
5170.000 -31.545
5180.000 -30.889
5190.000 -31.178
5200.000 -31.127
5210.000 -30.858
5220.000 -31.811
5230.000 -32.268
5240.000 -32.490
5250.000 -30.703
5260.000 -30.572
5270.000 -30.833
5280.000 -31.109
5290.000 -30.316
5300.000 -29.624
5310.000 -30.627
5320.000 -29.152
5330.000 -29.114
5340.000 -30.622
5350.000 -30.450
5360.000 -30.687
5370.000 -31.598
5380.000 -32.745
5390.000 -30.471
5400.000 -31.858
5410.000 -32.733
5420.000 -32.998
5430.000 -33.192
5440.000 -32.982
5450.000 -33.488
5460.000 -34.115
5470.000 -34.873
5480.000 -33.937
5490.000 -34.882
5500.000 -36.388
5510.000 -36.027
5520.000 -36.523
5530.000 -37.417
5540.000 -36.815
5550.000 -36.909
5560.000 -36.850
5570.000 -36.639
5580.000 -36.227
5590.000 -37.496
5600.000 -37.952
5610.000 -38.200
5620.000 -38.143
5630.000 -38.597
5640.000 -38.511
5650.000 -36.999
5660.000 -38.072
5670.000 -38.633
5680.000 -38.522
5690.000 -37.939
5700.000 -38.401
5710.000 -38.800
5720.000 -39.316
5730.000 -38.117
5740.000 -39.166
5750.000 -39.408
5760.000 -39.776
5770.000 -39.621
5780.000 -38.323
5790.000 -38.941
5800.000 -39.124
5810.000 -40.595
5820.000 -39.708
5830.000 -40.529
5840.000 -40.263
5850.000 -40.989
5860.000 -39.892
5870.000 -39.759
5880.000 -39.590
5890.000 -40.034
5900.000 -40.609
5910.000 -40.751
5920.000 -41.229
5930.000 -41.159
5940.000 -42.624
5950.000 -41.435
5960.000 -40.925
5970.000 -42.133
5980.000 -42.857
5990.000 -42.593
6000.000 -42.173
6010.000 -41.448
6020.000 -42.135
6030.000 -42.705
6040.000 -42.615
6050.000 -42.780
6060.000 -42.639
6070.000 -42.894
6080.000 -42.234
6090.000 -43.105
6100.000 -43.321
6110.000 -43.557
6120.000 -43.447
6130.000 -43.703
6140.000 -43.749
6150.000 -43.862
6160.000 -42.841
6170.000 -43.632
6180.000 -43.494
6190.000 -43.777
6200.000 -43.233
6210.000 -41.956
6220.000 -42.295
6230.000 -41.299
6240.000 -40.943
6250.000 -40.885
6260.000 -42.960
6270.000 -42.840
6280.000 -43.410
6290.000 -42.787
6300.000 -42.261
6310.000 -42.956
6320.000 -43.618
6330.000 -43.162
6340.000 -44.631
6350.000 -44.065
6360.000 -43.800
6370.000 -43.688
6380.000 -42.969
6390.000 -43.175
6400.000 -43.438
6410.000 -43.572
6420.000 -43.853
6430.000 -43.874
6440.000 -44.884
6450.000 -45.647
6460.000 -45.581
6470.000 -45.731
6480.000 -45.182
6490.000 -45.156
6500.000 -44.835
6510.000 -45.119
6520.000 -45.035
6530.000 -45.214
6540.000 -44.900
6550.000 -43.964
6560.000 -43.742
6570.000 -44.868
6580.000 -45.032
6590.000 -45.442
6600.000 -44.729
6610.000 -45.852
6620.000 -45.599
6630.000 -45.032
6640.000 -44.845
6650.000 -44.784
6660.000 -45.467
6670.000 -44.691
6680.000 -44.768
6690.000 -45.525
6700.000 -44.545
6710.000 -44.001
6720.000 -44.112
6730.000 -43.608
6740.000 -44.678
6750.000 -44.576
6760.000 -44.544
6770.000 -44.368
6780.000 -45.260
6790.000 -45.420
6800.000 -46.386
6810.000 -46.066
6820.000 -44.724
6830.000 -45.092
6840.000 -44.695
6850.000 -43.940
6860.000 -43.532
6870.000 -43.838
6880.000 -42.969
6890.000 -44.199
6900.000 -44.682
6910.000 -44.755
6920.000 -45.292
6930.000 -45.197
6940.000 -44.667
6950.000 -45.280
6960.000 -45.300
6970.000 -46.336
6980.000 -45.584
6990.000 -46.410
7000.000 -46.645
7010.000 -46.358
7020.000 -47.334
7030.000 -46.468
7040.000 -46.685
7050.000 -46.302
7060.000 -46.661
7070.000 -46.894
7080.000 -47.437
7090.000 -47.526
7100.000 -47.094
7110.000 -45.864
7120.000 -47.161
7130.000 -46.236
7140.000 -46.429
7150.000 -46.728
7160.000 -44.971
7170.000 -44.211
7180.000 -43.691
7190.000 -45.182
7200.000 -44.500
7210.000 -43.838
7220.000 -43.846
7230.000 -44.172
7240.000 -44.381
7250.000 -45.018
7260.000 -45.464
7270.000 -45.111
7280.000 -46.163
7290.000 -44.392
7300.000 -45.017
7310.000 -45.863
7320.000 -45.875
7330.000 -46.664
7340.000 -46.452
7350.000 -46.204
7360.000 -46.360
7370.000 -46.005
7380.000 -48.206
7390.000 -48.245
7400.000 -47.652
7410.000 -48.285
7420.000 -47.993
7430.000 -47.421
7440.000 -46.767
7450.000 -47.027
7460.000 -46.543
7470.000 -46.973
7480.000 -47.074
7490.000 -47.291
7500.000 -47.475
7510.000 -47.306
7520.000 -47.280
7530.000 -47.485
7540.000 -48.039
7550.000 -48.454
7560.000 -49.135
7570.000 -49.199
7580.000 -49.204
7590.000 -48.074
7600.000 -47.045
7610.000 -48.718
7620.000 -49.259
7630.000 -48.488
7640.000 -48.489
7650.000 -48.383
7660.000 -47.587
7670.000 -47.539
7680.000 -49.407
7690.000 -48.653
7700.000 -49.332
7710.000 -49.153
7720.000 -49.220
7730.000 -48.671
7740.000 -49.842
7750.000 -50.303
7760.000 -50.187
7770.000 -49.353
7780.000 -50.327
7790.000 -50.543
7800.000 -49.956
7810.000 -49.712
7820.000 -50.051
7830.000 -49.630
7840.000 -50.612
7850.000 -49.021
7860.000 -48.766
7870.000 -49.746
7880.000 -49.643
7890.000 -49.439
7900.000 -49.929
7910.000 -49.689
7920.000 -51.025
7930.000 -51.334
7940.000 -51.366
7950.000 -52.173
7960.000 -51.747
7970.000 -51.251
7980.000 -51.036
7990.000 -50.188
8000.000 -49.850
8010.000 -50.396
8020.000 -51.138
8030.000 -50.439
8040.000 -50.488
8050.000 -49.198
8060.000 -49.003
8070.000 -48.147
8080.000 -47.700
8090.000 -48.518
8100.000 -47.972
8110.000 -48.841
8120.000 -49.015
8130.000 -49.750
8140.000 -49.145
8150.000 -48.769
8160.000 -48.889
8170.000 -48.938
8180.000 -49.359
8190.000 -48.822
8200.000 -49.406
8210.000 -49.874
8220.000 -50.300
8230.000 -50.135
8240.000 -50.315
8250.000 -50.617
8260.000 -51.290
8270.000 -51.853
8280.000 -52.002
8290.000 -52.299
8300.000 -51.243
8310.000 -51.220
8320.000 -51.113
8330.000 -51.411
8340.000 -50.686
8350.000 -51.813
8360.000 -51.757
8370.000 -51.686
8380.000 -50.952
8390.000 -49.801
8400.000 -50.554
8410.000 -50.021
8420.000 -50.668
8430.000 -50.396
8440.000 -50.522
8450.000 -50.294
8460.000 -50.133
8470.000 -50.945
8480.000 -50.987
8490.000 -49.968
8500.000 -49.327
8510.000 -49.694
8520.000 -50.430
8530.000 -51.106
8540.000 -50.656
8550.000 -49.839
8560.000 -49.733
8570.000 -49.607
8580.000 -49.499
8590.000 -50.473
8600.000 -51.219
8610.000 -51.643
8620.000 -50.491
8630.000 -51.135
8640.000 -52.343
8650.000 -53.542
8660.000 -53.716
8670.000 -53.788
8680.000 -52.925
8690.000 -53.611
8700.000 -53.034
8710.000 -53.357
8720.000 -53.904
8730.000 -51.777
8740.000 -53.725
8750.000 -54.484
8760.000 -53.994
8770.000 -55.020
8780.000 -54.830
8790.000 -54.606
8800.000 -55.184
8810.000 -55.403
8820.000 -54.554
8830.000 -53.865
8840.000 -54.003
8850.000 -53.807
8860.000 -52.645
8870.000 -53.546
8880.000 -51.927
8890.000 -53.260
8900.000 -53.263
8910.000 -53.199
8920.000 -54.017
8930.000 -54.561
8940.000 -54.832
8950.000 -54.281
8960.000 -54.796
8970.000 -55.892
8980.000 -55.583
8990.000 -55.247
9000.000 -55.704
9010.000 -54.871
9020.000 -55.083
9030.000 -55.736
9040.000 -56.157
9050.000 -56.248
9060.000 -56.036
9070.000 -55.241
9080.000 -56.329
9090.000 -56.850
9100.000 -57.868
9110.000 -58.657
9120.000 -58.822
9130.000 -58.752
9140.000 -58.583
9150.000 -59.349
9160.000 -59.669
9170.000 -59.667
9180.000 -59.354
9190.000 -58.349
9200.000 -58.757
9210.000 -59.541
9220.000 -59.493
9230.000 -60.393
9240.000 -60.380
9250.000 -59.986
9260.000 -60.907
9270.000 -61.427
9280.000 -60.616
9290.000 -58.941
9300.000 -59.304
9310.000 -59.500
9320.000 -59.133
9330.000 -59.306
9340.000 -59.361
9350.000 -59.786
9360.000 -59.880
9370.000 -59.984
9380.000 -60.295
9390.000 -58.716
9400.000 -59.250
9410.000 -59.863
9420.000 -60.190
9430.000 -60.543
9440.000 -60.302
9450.000 -60.312
9460.000 -59.758
9470.000 -60.135
9480.000 -58.220
9490.000 -58.558
9500.000 -58.494
9510.000 -58.331
9520.000 -58.734
9530.000 -58.177
9540.000 -58.861
9550.000 -59.474
9560.000 -59.263
9570.000 -58.568
9580.000 -60.023
9590.000 -59.619
9600.000 -59.940
9610.000 -59.944
9620.000 -60.717
9630.000 -60.017
9640.000 -60.749
9650.000 -59.677
9660.000 -60.699
9670.000 -60.585
9680.000 -60.704
9690.000 -60.676
9700.000 -60.270
9710.000 -60.921
9720.000 -59.844
9730.000 -58.944
9740.000 -59.479
9750.000 -59.578
9760.000 -59.455
9770.000 -59.803
9780.000 -59.765
9790.000 -60.169
9800.000 -59.937
9810.000 -60.699
9820.000 -60.987
9830.000 -61.170
9840.000 -61.006
9850.000 -60.729
9860.000 -61.061
9870.000 -60.394
9880.000 -61.066
9890.000 -60.992
9900.000 -60.442
9910.000 -59.682
9920.000 -59.987
9930.000 -60.715
9940.000 -60.736
9950.000 -61.272
9960.000 -60.651
9970.000 -61.006
9980.000 -61.181
9990.000 -61.185
10000.000 -61.254
10010.000 -61.272
10020.000 -60.755
10030.000 -59.974
10040.000 -60.554
10050.000 -60.898
10060.000 -61.160
10070.000 -60.972
10080.000 -60.964
10090.000 -61.099
10100.000 -60.429
10110.000 -60.312
10120.000 -60.176
10130.000 -60.429
10140.000 -60.275
10150.000 -60.629
10160.000 -60.936
10170.000 -60.576
10180.000 -60.813
10190.000 -60.763
10200.000 -60.325
10210.000 -60.568
10220.000 -60.327
10230.000 -60.491
10240.000 -60.746
10250.000 -60.429
10260.000 -59.804
10270.000 -60.119
10280.000 -60.121
10290.000 -60.620
10300.000 -60.403
10310.000 -59.910
10320.000 -58.761
10330.000 -59.001
10340.000 -58.921
10350.000 -59.071
10360.000 -58.806
10370.000 -59.166
10380.000 -59.343
10390.000 -59.306
10400.000 -58.362
10410.000 -59.131
10420.000 -58.959
10430.000 -58.908
10440.000 -58.204
10450.000 -58.420
10460.000 -58.591
10470.000 -58.094
10480.000 -58.065
10490.000 -58.311
10500.000 -57.588
10510.000 -57.759
10520.000 -57.848
10530.000 -58.029
10540.000 -57.854
10550.000 -57.966
10560.000 -57.675
10570.000 -57.400
10580.000 -56.787
10590.000 -57.172
10600.000 -56.774
10610.000 -57.246
10620.000 -57.133
10630.000 -57.287
10640.000 -57.406
10650.000 -56.983
10660.000 -56.343
10670.000 -55.451
10680.000 -55.580
10690.000 -55.072
10700.000 -55.370
10710.000 -54.992
10720.000 -55.368
10730.000 -55.766
10740.000 -55.968
10750.000 -55.317
10760.000 -54.542
10770.000 -54.228
10780.000 -53.827
10790.000 -53.438
10800.000 -53.369
10810.000 -53.418
10820.000 -53.022
10830.000 -52.934
10840.000 -52.935
10850.000 -52.673
10860.000 -52.769
10870.000 -52.448
10880.000 -51.822
10890.000 -51.839
10900.000 -52.599
10910.000 -52.126
10920.000 -51.151
10930.000 -50.430
10940.000 -50.009
10950.000 -49.106
10960.000 -48.302
10970.000 -49.062
10980.000 -48.513
10990.000 -48.703
11000.000 -49.096
11010.000 -48.760
11020.000 -48.139
11030.000 -48.729
11040.000 -47.072
11050.000 -46.820
11060.000 -47.333
11070.000 -47.694
11080.000 -47.963
11090.000 -47.702
11100.000 -47.154
11110.000 -47.451
11120.000 -47.963
11130.000 -47.787
11140.000 -47.311
11150.000 -47.647
11160.000 -48.653
11170.000 -49.011
11180.000 -48.314
11190.000 -48.649
11200.000 -48.369
11210.000 -47.514
11220.000 -47.360
11230.000 -47.670
11240.000 -47.543
11250.000 -47.272
11260.000 -46.384
11270.000 -46.787
11280.000 -47.114
11290.000 -46.649
11300.000 -46.730
11310.000 -46.988
11320.000 -47.083
11330.000 -46.821
11340.000 -47.677
11350.000 -47.709
11360.000 -47.523
11370.000 -48.132
11380.000 -48.381
11390.000 -48.458
11400.000 -48.778
11410.000 -48.878
11420.000 -48.230
11430.000 -48.741
11440.000 -48.588
11450.000 -49.099
11460.000 -49.420
11470.000 -49.206
11480.000 -49.529
11490.000 -49.182
11500.000 -49.414
11510.000 -49.145
11520.000 -48.997
11530.000 -48.041
11540.000 -49.246
11550.000 -49.333
11560.000 -49.838
11570.000 -49.971
11580.000 -50.000
11590.000 -50.025
11600.000 -49.230
11610.000 -49.320
11620.000 -48.979
11630.000 -49.200
11640.000 -49.476
11650.000 -49.333
11660.000 -49.095
11670.000 -48.404
11680.000 -47.925
11690.000 -47.835
11700.000 -47.342
11710.000 -47.606
11720.000 -46.564
11730.000 -47.195
11740.000 -46.961
11750.000 -47.184
11760.000 -47.784
11770.000 -46.861
11780.000 -46.657
11790.000 -47.135
11800.000 -46.572
11810.000 -46.328
11820.000 -45.981
11830.000 -45.382
11840.000 -45.013
11850.000 -44.223
11860.000 -44.308
11870.000 -44.446
11880.000 -44.222
11890.000 -44.226
11900.000 -44.050
11910.000 -43.941
11920.000 -44.173
11930.000 -45.026
11940.000 -44.791
11950.000 -44.935
11960.000 -44.402
11970.000 -43.922
11980.000 -44.479
11990.000 -43.791
12000.000 -43.844
12010.000 -43.209
12020.000 -42.863
12030.000 -43.028
12040.000 -41.605
12050.000 -41.024
12060.000 -40.063
12070.000 -40.759
12080.000 -40.991
12090.000 -41.219
12100.000 -41.003
12110.000 -40.808
12120.000 -40.569
12130.000 -40.246
12140.000 -39.931
12150.000 -39.819
12160.000 -39.945
12170.000 -39.437
12180.000 -40.118
12190.000 -38.734
12200.000 -38.364
12210.000 -38.774
12220.000 -38.499
12230.000 -38.535
12240.000 -38.202
12250.000 -38.135
12260.000 -38.347
12270.000 -38.658
12280.000 -38.770
12290.000 -37.628
12300.000 -37.343
12310.000 -37.255
12320.000 -37.374
12330.000 -37.720
12340.000 -37.237
12350.000 -36.806
12360.000 -36.882
12370.000 -36.607
12380.000 -37.172
12390.000 -36.890
12400.000 -37.179
12410.000 -36.421
12420.000 -36.252
12430.000 -35.628
12440.000 -34.763
12450.000 -35.021
12460.000 -34.637
12470.000 -34.545
12480.000 -33.866
12490.000 -33.601
12500.000 -32.982
12510.000 -32.824
12520.000 -32.821
12530.000 -32.004
12540.000 -32.512
12550.000 -32.546
12560.000 -33.075
12570.000 -33.762
12580.000 -33.416
12590.000 -33.132
12600.000 -33.052
12610.000 -33.558
12620.000 -33.211
12630.000 -33.047
12640.000 -33.442
12650.000 -33.248
12660.000 -33.839
12670.000 -33.487
12680.000 -33.294
12690.000 -32.817
12700.000 -33.084
12710.000 -33.373
12720.000 -33.345
12730.000 -33.450
12740.000 -32.818
12750.000 -33.921
12760.000 -34.789
12770.000 -34.304
12780.000 -34.842
12790.000 -35.007
12800.000 -34.311
12810.000 -34.338
12820.000 -33.779
12830.000 -34.148
12840.000 -33.964
12850.000 -34.020
12860.000 -34.016
12870.000 -34.186
12880.000 -34.417
12890.000 -33.763
12900.000 -34.163
12910.000 -33.681
12920.000 -33.388
12930.000 -33.727
12940.000 -33.410
12950.000 -32.869
12960.000 -33.142
12970.000 -32.865
12980.000 -32.379
12990.000 -32.713
13000.000 -32.895
13010.000 -32.987
13020.000 -32.590
13030.000 -32.260
13040.000 -32.166
13050.000 -31.665
13060.000 -31.957
13070.000 -31.771
13080.000 -31.091
13090.000 -32.129
13100.000 -31.496
13110.000 -31.587
13120.000 -31.757
13130.000 -32.293
13140.000 -32.435
13150.000 -32.761
13160.000 -33.062
13170.000 -33.230
13180.000 -32.404
13190.000 -32.770
13200.000 -32.702
13210.000 -32.458
13220.000 -31.783
13230.000 -31.632
13240.000 -30.996
13250.000 -30.783
13260.000 -30.087
13270.000 -29.706
13280.000 -29.989
13290.000 -30.048
13300.000 -29.810
13310.000 -29.695
13320.000 -29.334
13330.000 -28.549
13340.000 -28.458
13350.000 -28.504
13360.000 -28.799
13370.000 -28.611
13380.000 -27.773
13390.000 -27.611
13400.000 -27.611
13410.000 -27.337
13420.000 -26.472
13430.000 -26.828
13440.000 -26.441
13450.000 -25.508
13460.000 -26.167
13470.000 -26.224
13480.000 -25.790
13490.000 -25.979
13500.000 -25.894
13510.000 -25.608
13520.000 -25.359
13530.000 -25.318
13540.000 -24.983
13550.000 -24.899
13560.000 -24.675
13570.000 -23.922
13580.000 -24.204
13590.000 -24.532
13600.000 -24.782
13610.000 -23.906
13620.000 -23.611
13630.000 -23.997
13640.000 -22.664
13650.000 -22.727
13660.000 -22.630
13670.000 -23.038
13680.000 -22.555
13690.000 -22.699
13700.000 -22.989
13710.000 -23.434
13720.000 -23.471
13730.000 -23.430
13740.000 -23.302
13750.000 -22.394
13760.000 -21.757
13770.000 -21.715
13780.000 -21.956
13790.000 -21.760
13800.000 -21.578
13810.000 -21.473
13820.000 -21.465
13830.000 -20.849
13840.000 -19.929
13850.000 -20.321
13860.000 -20.205
13870.000 -19.934
13880.000 -20.432
13890.000 -20.286
13900.000 -20.204
13910.000 -19.792
13920.000 -19.367
13930.000 -18.360
13940.000 -17.813
13950.000 -17.081
13960.000 -17.647
13970.000 -17.302
13980.000 -17.281
13990.000 -17.738
14000.000 -18.287
14010.000 -17.964
14020.000 -16.804
14030.000 -16.237
14040.000 -16.567
14050.000 -16.504
14060.000 -16.437
14070.000 -15.992
14080.000 -15.631
14090.000 -15.050
14100.000 -14.511
14110.000 -14.874
14120.000 -15.015
14130.000 -14.170
14140.000 -13.617
14150.000 -13.710
14160.000 -13.670
14170.000 -12.949
14180.000 -13.577
14190.000 -13.484
14200.000 -13.192
14210.000 -14.481
14220.000 -14.351
14230.000 -14.006
14240.000 -14.688
14250.000 -14.291
14260.000 -14.053
14270.000 -13.494
14280.000 -13.952
14290.000 -13.466
14300.000 -13.969
14310.000 -13.703
14320.000 -13.168
14330.000 -13.614
14340.000 -13.871
14350.000 -14.308
14360.000 -14.125
14370.000 -14.166
14380.000 -13.811
14390.000 -13.140
14400.000 -13.071
14410.000 -13.028
14420.000 -12.529
14430.000 -12.677
14440.000 -12.337
14450.000 -11.724
14460.000 -11.743
14470.000 -12.555
14480.000 -12.601
14490.000 -12.631
14500.000 -12.644
14510.000 -13.357
14520.000 -13.105
14530.000 -12.977
14540.000 -13.306
14550.000 -13.792
14560.000 -14.186
14570.000 -14.255
14580.000 -14.232
14590.000 -13.802
14600.000 -13.682
14610.000 -13.570
14620.000 -13.677
14630.000 -13.460
14640.000 -13.077
14650.000 -12.608
14660.000 -12.359
14670.000 -12.268
14680.000 -12.526
14690.000 -12.846
14700.000 -13.093
14710.000 -13.153
14720.000 -13.146
14730.000 -13.506
14740.000 -13.102
14750.000 -13.247
14760.000 -12.808
14770.000 -13.083
14780.000 -13.288
14790.000 -12.720
14800.000 -12.423
14810.000 -12.328
14820.000 -12.286
14830.000 -12.542
14840.000 -12.908
14850.000 -12.562
14860.000 -12.286
14870.000 -12.894
14880.000 -12.666
14890.000 -12.463
14900.000 -13.278
14910.000 -13.170
14920.000 -13.056
14930.000 -12.706
14940.000 -12.764
14950.000 -12.413
14960.000 -13.025
14970.000 -12.351
14980.000 -12.518
14990.000 -12.480
15000.000 -12.422
